#time[s] 	 x_1[m] 	 u[V] 	 xhat_1[m] 	 xhat_2[m/s] 	 diff[m/s]
0.00 	0.000000 	0.000000 	0.000000 	0.000000 	0.000000
0.01 	0.000000 	10.000000 	0.000000 	0.000000 	0.000000
0.02 	0.000450 	10.000000 	0.000000 	0.366005 	0.045003
0.03 	0.002925 	8.261615 	0.003779 	0.720135 	0.247516
0.04 	0.008101 	5.905449 	0.010755 	0.994018 	0.517533
0.05 	0.012601 	4.157015 	0.019994 	1.166469 	0.450029
0.06 	0.019351 	2.989885 	0.029708 	1.254718 	0.675043
0.07 	0.025877 	2.211313 	0.039521 	1.288322 	0.652542
0.08 	0.033077 	1.746016 	0.048803 	1.282512 	0.720046
0.09 	0.040728 	1.479503 	0.057477 	1.253739 	0.765049
0.10 	0.049278 	1.328125 	0.065594 	1.213227 	0.855055
0.11 	0.057604 	1.212794 	0.073419 	1.169918 	0.832553
0.12 	0.065704 	1.122459 	0.080944 	1.125425 	0.810052
0.13 	0.073580 	1.048142 	0.088176 	1.080930 	0.787550
0.14 	0.081905 	0.983191 	0.095132 	1.037220 	0.832553
0.15 	0.090456 	0.899020 	0.102013 	0.996750 	0.855055
0.16 	0.098781 	0.789034 	0.108930 	0.959587 	0.832553
0.17 	0.106432 	0.668419 	0.115847 	0.923897 	0.765049
0.18 	0.114082 	0.563668 	0.122601 	0.887245 	0.765049
0.19 	0.122408 	0.465039 	0.129225 	0.850727 	0.832553
0.20 	0.130058 	0.342138 	0.135933 	0.816939 	0.765049
0.21 	0.137484 	0.227690 	0.142552 	0.782654 	0.742548
0.22 	0.145584 	0.124462 	0.149041 	0.747797 	0.810052
0.23 	0.153235 	0.000912 	0.155606 	0.715177 	0.765049
0.24 	0.160435 	-0.119425 	0.162132 	0.682413 	0.720046
0.25 	0.167861 	-0.222709 	0.168508 	0.648418 	0.742548
0.26 	0.174611 	-0.326464 	0.174822 	0.614965 	0.675043
0.27 	0.181812 	-0.408868 	0.180916 	0.580212 	0.720046
0.28 	0.187887 	-0.499077 	0.186954 	0.546962 	0.607539
0.29 	0.194412 	-0.557271 	0.192670 	0.511719 	0.652542
0.30 	0.199138 	-0.618923 	0.198247 	0.478006 	0.472530
0.31 	0.204088 	-0.624236 	0.203262 	0.440739 	0.495032
0.32 	0.208363 	-0.615163 	0.207888 	0.404431 	0.427527
0.33 	0.211964 	-0.585588 	0.212058 	0.368731 	0.360023
0.34 	0.215114 	-0.533258 	0.215720 	0.333720 	0.315020
0.35 	0.217589 	-0.466421 	0.218897 	0.300375 	0.247516
0.36 	0.220064 	-0.382610 	0.221556 	0.268607 	0.247516
0.37 	0.221864 	-0.305280 	0.223848 	0.240512 	0.180012
0.38 	0.222989 	-0.222737 	0.225729 	0.214807 	0.112507
0.39 	0.224789 	-0.127611 	0.227154 	0.190818 	0.180012
0.40 	0.225914 	-0.064124 	0.228438 	0.172285 	0.112507
0.41 	0.227040 	-0.006412 	0.229495 	0.156274 	0.112507
0.42 	0.227490 	0.038210 	0.230410 	0.143155 	0.045003
0.43 	0.228390 	0.091402 	0.231070 	0.130771 	0.090006
0.44 	0.229515 	0.125557 	0.231671 	0.121487 	0.112507
0.45 	0.229515 	0.134612 	0.232316 	0.115337 	0.000000
0.46 	0.230640 	0.166099 	0.232730 	0.107834 	0.112507
0.47 	0.230640 	0.166029 	0.233257 	0.103853 	0.000000
0.48 	0.231990 	0.185920 	0.233605 	0.098460 	0.135009
0.49 	0.231990 	0.166315 	0.234163 	0.096947 	0.000000
0.50 	0.232440 	0.172257 	0.234559 	0.093123 	0.045003
0.51 	0.232890 	0.175791 	0.234931 	0.089814 	0.045003
0.52 	0.233565 	0.176552 	0.235290 	0.086985 	0.067504
0.53 	0.233790 	0.166653 	0.235705 	0.085217 	0.022501
0.54 	0.234690 	0.166638 	0.236051 	0.082591 	0.090006
0.55 	0.234015 	0.147623 	0.236518 	0.081693 	-0.067504
0.56 	0.234915 	0.174647 	0.236674 	0.076761 	0.090006
0.57 	0.235140 	0.169391 	0.236978 	0.075192 	0.022501
0.58 	0.235590 	0.168766 	0.237244 	0.073256 	0.045003
0.59 	0.235815 	0.162322 	0.237540 	0.071907 	0.022501
0.60 	0.235815 	0.160495 	0.237804 	0.070162 	0.000000
0.61 	0.236265 	0.169066 	0.237981 	0.067635 	0.045003
0.62 	0.235815 	0.166336 	0.238204 	0.066320 	-0.045003
0.63 	0.236040 	0.188755 	0.238237 	0.062964 	0.022501
0.64 	0.236040 	0.199346 	0.238287 	0.061118 	0.000000
0.65 	0.236040 	0.209450 	0.238305 	0.059579 	0.000000
0.66 	0.236265 	0.217978 	0.238303 	0.058411 	0.022501
0.67 	0.236040 	0.216484 	0.238349 	0.058268 	-0.022501
0.68 	0.236490 	0.225112 	0.238322 	0.057274 	0.045003
0.69 	0.236715 	0.214721 	0.238411 	0.058040 	0.022501
0.70 	0.236715 	0.202002 	0.238544 	0.058798 	0.000000
0.71 	0.237390 	0.197160 	0.238649 	0.058672 	0.067504
0.72 	0.236715 	0.173285 	0.238904 	0.060056 	-0.067504
0.73 	0.237390 	0.188502 	0.238927 	0.057772 	0.067504
0.74 	0.237165 	0.177070 	0.239099 	0.058052 	-0.022501
0.75 	0.236940 	0.182757 	0.239169 	0.056732 	-0.022501
0.76 	0.237390 	0.197861 	0.239148 	0.054796 	0.045003
0.77 	0.237165 	0.192716 	0.239232 	0.054873 	-0.022501
0.78 	0.236940 	0.199940 	0.239235 	0.053847 	-0.022501
0.79 	0.237390 	0.213700 	0.239168 	0.052449 	0.045003
0.80 	0.237165 	0.205758 	0.239223 	0.053132 	-0.022501
0.81 	0.237390 	0.209724 	0.239211 	0.052672 	0.022501
0.82 	0.237165 	0.204316 	0.239257 	0.053073 	-0.022501
0.83 	0.237165 	0.209899 	0.239236 	0.052461 	0.000000
0.84 	0.237165 	0.213416 	0.239214 	0.052140 	0.000000
0.85 	0.237165 	0.215314 	0.239195 	0.052023 	0.000000
0.86 	0.236940 	0.216053 	0.239179 	0.052038 	-0.022501
0.87 	0.236940 	0.224078 	0.239109 	0.051460 	0.000000
0.88 	0.237165 	0.227629 	0.239051 	0.051405 	0.022501
0.89 	0.237165 	0.220162 	0.239067 	0.052316 	0.000000
0.90 	0.236940 	0.214988 	0.239088 	0.052874 	-0.022501
0.91 	0.237390 	0.219811 	0.239050 	0.052495 	0.045003
0.92 	0.236940 	0.206033 	0.239137 	0.053747 	-0.045003
0.93 	0.237165 	0.214703 	0.239095 	0.052866 	0.022501
0.94 	0.237390 	0.211791 	0.239114 	0.053123 	0.022501
0.95 	0.236715 	0.202233 	0.239190 	0.053870 	-0.067504
0.96 	0.237165 	0.221809 	0.239076 	0.052024 	0.045003
0.97 	0.237165 	0.216587 	0.239092 	0.052627 	0.000000
0.98 	0.237165 	0.213141 	0.239109 	0.052970 	0.000000
0.99 	0.237390 	0.211142 	0.239126 	0.053122 	0.022501
1.00 	0.236940 	0.202183 	0.239199 	0.053811 	-0.045003
1.01 	0.237390 	0.214070 	0.239141 	0.052602 	0.045003
1.02 	0.237165 	0.205021 	0.239205 	0.053373 	-0.022501
1.03 	0.237165 	0.208457 	0.239200 	0.052931 	0.000000
1.04 	0.236940 	0.210948 	0.239192 	0.052645 	-0.022501
1.05 	0.236940 	0.220618 	0.239124 	0.051820 	0.000000
1.06 	0.236940 	0.225544 	0.239066 	0.051578 	0.000000
1.07 	0.237165 	0.227157 	0.239021 	0.051698 	0.022501
1.08 	0.237165 	0.218656 	0.239048 	0.052671 	0.000000
1.09 	0.237390 	0.213092 	0.239078 	0.053217 	0.022501
1.10 	0.236940 	0.201869 	0.239164 	0.054116 	-0.045003
1.11 	0.236940 	0.212517 	0.239118 	0.052987 	0.000000
1.12 	0.236940 	0.219038 	0.239073 	0.052425 	0.000000
1.13 	0.237390 	0.222389 	0.239035 	0.052254 	0.045003
1.14 	0.237390 	0.207449 	0.239123 	0.053655 	0.000000
1.15 	0.237165 	0.199211 	0.239202 	0.054198 	-0.022501
1.16 	0.237165 	0.203853 	0.239207 	0.053522 	0.000000
1.17 	0.237165 	0.207617 	0.239203 	0.053027 	0.000000
1.18 	0.237615 	0.210400 	0.239195 	0.052699 	0.045003
1.19 	0.237165 	0.196203 	0.239305 	0.053835 	-0.045003
1.20 	0.237165 	0.205421 	0.239279 	0.052757 	0.000000
1.21 	0.237165 	0.211568 	0.239248 	0.052134 	0.000000
1.22 	0.237165 	0.215188 	0.239220 	0.051849 	0.000000
1.23 	0.236490 	0.216916 	0.239196 	0.051790 	-0.067504
1.24 	0.237390 	0.241457 	0.239000 	0.049874 	0.090006
1.25 	0.236940 	0.220921 	0.239074 	0.052162 	-0.045003
1.26 	0.237165 	0.223858 	0.239032 	0.052069 	0.022501
1.27 	0.237165 	0.216530 	0.239060 	0.052874 	0.000000
1.28 	0.238290 	0.211902 	0.239089 	0.053299 	0.112507
1.29 	0.237390 	0.169222 	0.239411 	0.056776 	-0.090006
1.30 	0.236940 	0.180456 	0.239445 	0.054957 	-0.045003
1.31 	0.237390 	0.206543 	0.239334 	0.052186 	0.045003
1.32 	0.237165 	0.206483 	0.239343 	0.052127 	-0.022501
1.33 	0.236940 	0.214807 	0.239289 	0.051377 	-0.022501
1.34 	0.237390 	0.227276 	0.239183 	0.050453 	0.045003
1.35 	0.237165 	0.216856 	0.239214 	0.051660 	-0.022501
1.36 	0.236940 	0.217995 	0.239190 	0.051686 	-0.022501
1.37 	0.236940 	0.225995 	0.239113 	0.051160 	0.000000
1.38 	0.236940 	0.229285 	0.239051 	0.051173 	0.000000
1.39 	0.237390 	0.229493 	0.239006 	0.051488 	0.045003
1.40 	0.236940 	0.211864 	0.239094 	0.053263 	-0.045003
1.41 	0.237165 	0.217608 	0.239058 	0.052738 	0.022501
1.42 	0.237165 	0.212669 	0.239086 	0.053213 	0.000000
1.43 	0.237165 	0.209888 	0.239111 	0.053408 	0.000000
1.44 	0.236940 	0.208683 	0.239132 	0.053420 	-0.022501
1.45 	0.236940 	0.216558 	0.239087 	0.052663 	0.000000
1.46 	0.237165 	0.220992 	0.239047 	0.052352 	0.022501
1.47 	0.236715 	0.214878 	0.239074 	0.052997 	-0.045003
1.48 	0.236940 	0.227218 	0.238981 	0.051988 	0.022501
1.49 	0.237165 	0.225248 	0.238962 	0.052404 	0.022501
1.50 	0.236940 	0.214969 	0.239012 	0.053454 	-0.022501
1.51 	0.237390 	0.216911 	0.239000 	0.053278 	0.045003
1.52 	0.236715 	0.201880 	0.239108 	0.054544 	-0.067504
1.53 	0.236940 	0.218411 	0.239022 	0.052904 	0.022501
1.54 	0.236940 	0.219941 	0.239001 	0.052846 	0.000000
1.55 	0.237165 	0.220357 	0.238986 	0.052906 	0.022501
1.56 	0.237165 	0.212056 	0.239034 	0.053690 	0.000000
1.57 	0.236940 	0.207454 	0.239078 	0.053998 	-0.022501
1.58 	0.237165 	0.213569 	0.239054 	0.053334 	0.022501
1.59 	0.237165 	0.209359 	0.239088 	0.053653 	0.000000
1.60 	0.236940 	0.207416 	0.239117 	0.053704 	-0.022501
1.61 	0.237390 	0.215037 	0.239080 	0.052932 	0.045003
1.62 	0.237165 	0.203454 	0.239163 	0.053906 	-0.022501
1.63 	0.236940 	0.205661 	0.239175 	0.053511 	-0.022501
1.64 	0.236940 	0.215852 	0.239120 	0.052513 	0.000000
1.65 	0.237165 	0.221685 	0.239070 	0.052085 	0.022501
1.66 	0.237165 	0.216272 	0.239088 	0.052698 	0.000000
1.67 	0.237165 	0.212759 	0.239107 	0.053038 	0.000000
1.68 	0.237390 	0.210771 	0.239125 	0.053179 	0.022501
1.69 	0.237390 	0.201866 	0.239199 	0.053854 	0.000000
1.70 	0.237165 	0.197755 	0.239260 	0.053961 	-0.022501
1.71 	0.237165 	0.204915 	0.239247 	0.053070 	0.000000
1.72 	0.236940 	0.209964 	0.239228 	0.052511 	-0.022501
1.73 	0.237165 	0.221206 	0.239149 	0.051549 	0.022501
1.74 	0.236940 	0.218909 	0.239141 	0.051930 	-0.022501
1.75 	0.237390 	0.224852 	0.239079 	0.051573 	0.045003
1.76 	0.237165 	0.211058 	0.239149 	0.052956 	-0.022501
1.77 	0.237165 	0.211038 	0.239155 	0.052915 	0.000000
1.78 	0.236940 	0.211244 	0.239159 	0.052857 	-0.022501
1.79 	0.237390 	0.219586 	0.239102 	0.052133 	0.045003
1.80 	0.237165 	0.207826 	0.239171 	0.053237 	-0.022501
1.81 	0.237165 	0.209370 	0.239174 	0.053001 	0.000000
1.82 	0.237165 	0.210674 	0.239174 	0.052823 	0.000000
1.83 	0.237165 	0.211675 	0.239172 	0.052699 	0.000000
1.84 	0.236940 	0.212376 	0.239169 	0.052622 	-0.022501
1.85 	0.236940 	0.220852 	0.239107 	0.051918 	0.000000
1.86 	0.236940 	0.225073 	0.239054 	0.051732 	0.000000
1.87 	0.237165 	0.226348 	0.239014 	0.051864 	0.022501
1.88 	0.236940 	0.217761 	0.239044 	0.052822 	-0.022501
1.89 	0.237165 	0.220299 	0.239017 	0.052676 	0.022501
1.90 	0.237165 	0.213203 	0.239055 	0.053373 	0.000000
1.91 	0.237390 	0.209134 	0.239090 	0.053673 	0.022501
1.92 	0.237165 	0.199265 	0.239178 	0.054374 	-0.022501
1.93 	0.237165 	0.202978 	0.239190 	0.053765 	0.000000
1.94 	0.237165 	0.206331 	0.239194 	0.053276 	0.000000
1.95 	0.236940 	0.209047 	0.239191 	0.052920 	-0.022501
1.96 	0.237390 	0.219090 	0.239126 	0.052019 	0.045003
1.97 	0.237165 	0.208354 	0.239188 	0.053038 	-0.022501
1.98 	0.237165 	0.210408 	0.239184 	0.052780 	0.000000
1.99 	0.237165 	0.211867 	0.239179 	0.052617 	0.000000
2.00 	0.237165 	0.212802 	0.239174 	0.052529 	0.000000
2.01 	0.237390 	0.213320 	0.239169 	0.052494 	0.022501
2.02 	0.238515 	0.205503 	0.239224 	0.053158 	0.112507
2.03 	0.236940 	0.161365 	0.239569 	0.056669 	-0.157510
2.04 	0.237165 	0.196410 	0.239442 	0.052772 	0.022501
2.05 	0.236940 	0.210748 	0.239368 	0.051338 	-0.022501
2.06 	0.237390 	0.227135 	0.239241 	0.050033 	0.045003
2.07 	0.237165 	0.218946 	0.239253 	0.051078 	-0.022501
2.08 	0.236490 	0.221076 	0.239213 	0.051088 	-0.067504
2.09 	0.237390 	0.245308 	0.239005 	0.049301 	0.090006
2.10 	0.237165 	0.224102 	0.239072 	0.051736 	-0.022501
2.11 	0.236940 	0.218217 	0.239086 	0.052445 	-0.022501
2.12 	0.237165 	0.222221 	0.239044 	0.052207 	0.022501
2.13 	0.236715 	0.215707 	0.239070 	0.052912 	-0.045003
2.14 	0.237390 	0.227713 	0.238978 	0.051948 	0.067504
2.15 	0.236940 	0.209422 	0.239078 	0.053723 	-0.045003
2.16 	0.237165 	0.215107 	0.239051 	0.053140 	0.022501
2.17 	0.236940 	0.210456 	0.239085 	0.053530 	-0.022501
2.18 	0.237165 	0.216157 	0.239054 	0.052972 	0.022501
2.19 	0.237390 	0.211381 	0.239085 	0.053398 	0.022501
2.20 	0.236715 	0.200823 	0.239172 	0.054206 	-0.067504
2.21 	0.237165 	0.220016 	0.239065 	0.052350 	0.045003
2.22 	0.237165 	0.214808 	0.239087 	0.052906 	0.000000
2.23 	0.236940 	0.211600 	0.239109 	0.053186 	-0.022501
2.24 	0.237165 	0.217967 	0.239068 	0.052611 	0.022501
2.25 	0.237165 	0.213335 	0.239092 	0.053073 	0.000000
2.26 	0.237390 	0.210641 	0.239114 	0.053280 	0.022501
2.27 	0.236940 	0.201353 	0.239192 	0.053979 	-0.045003
2.28 	0.236715 	0.213161 	0.239137 	0.052755 	-0.022501
2.29 	0.236715 	0.228289 	0.239026 	0.051504 	0.000000
2.30 	0.237165 	0.235790 	0.238931 	0.051182 	0.045003
2.31 	0.236940 	0.221949 	0.238977 	0.052755 	-0.022501
2.32 	0.236940 	0.220980 	0.238967 	0.052965 	0.000000
2.33 	0.236940 	0.219851 	0.238961 	0.053161 	0.000000
2.34 	0.237390 	0.218777 	0.238959 	0.053324 	0.045003
2.35 	0.236940 	0.201803 	0.239079 	0.054776 	-0.045003
2.36 	0.237390 	0.209212 	0.239062 	0.053875 	0.045003
2.37 	0.237165 	0.198260 	0.239159 	0.054655 	-0.022501
2.38 	0.236940 	0.201491 	0.239180 	0.054054 	-0.022501
2.39 	0.237615 	0.212797 	0.239129 	0.052869 	0.067504
2.40 	0.236940 	0.195550 	0.239258 	0.054282 	-0.067504
2.41 	0.237165 	0.211164 	0.239189 	0.052640 	0.022501
2.42 	0.237165 	0.212629 	0.239181 	0.052496 	0.000000
2.43 	0.237165 	0.213469 	0.239174 	0.052434 	0.000000
2.44 	0.236940 	0.213848 	0.239168 	0.052426 	-0.022501
2.45 	0.236940 	0.221953 	0.239104 	0.051786 	0.000000
2.46 	0.237390 	0.225823 	0.239051 	0.051654 	0.045003
2.47 	0.236940 	0.210734 	0.239129 	0.053154 	-0.045003
2.48 	0.236940 	0.218059 	0.239083 	0.052489 	0.000000
2.49 	0.236940 	0.221989 	0.239042 	0.052252 	0.000000
2.50 	0.236940 	0.223497 	0.239010 	0.052288 	0.000000
